"Small Bottom Face Disp"
"Time (sec)","Linear Displacement3 (mm)"
0,-37.9234505138249
0.00666666666666667,-38.2733521695898
0.0133333333333333,-38.6231403916673
0.02,-38.9713796801156
0.0266666666666667,-39.3166254459234
0.0333333333333333,-39.657430478442
0.04,-39.992351662931
0.0466666666666667,-40.3199569063244
0.0533333333333333,-40.638832224743
0.06,-40.9475889422409
0.0666666666666667,-41.2448709468451
0.0733333333333333,-41.5293619471879
0.08,-41.7997926709989
0.0866666666666667,-42.0549479454406
0.0933333333333333,-42.2936735987732
0.1,-42.5148831231096
0.106666666666667,-42.7175640390806
0.113333333333333,-42.9007839050403
0.12,-43.0636959159828
0.126666666666667,-43.2055440405641
0.133333333333333,-43.3256676484883
0.14,-43.4235055849589
0.146666666666667,-43.498599653865
0.153333333333333,-43.550597476791
0.16,-43.5792547007455
0.166666666666667,-43.5844365336375
0.173333333333333,-43.5661185928258
0.18,-43.5243870588169
0.186666666666667,-43.4594381323778
0.193333333333333,-43.3715768005064
0.2,-43.2612149228537
0.206666666666667,-43.1288686568533
0.213333333333333,-42.9751552459899
0.22,-42.8007892015999
0.226666666666666,-42.606577914198
0.233333333333333,-42.3934167355006
0.24,-42.1622835769935
0.246666666666666,-41.9142330750249
0.253333333333333,-41.6503903759111
0.26,-41.3719445973938
0.266666666666666,-41.0801420249216
0.273333333333333,-40.7762791026229
0.28,-40.4616952794598
0.286666666666666,-40.1377657708949
0.293333333333333,-39.8058942954648
0.3,-39.4675058439472
0.306666666666666,-39.1240395363662
0.313333333333333,-38.7769416189389
0.32,-38.4276586492871
0.326666666666666,-38.0776309138893
0.333333333333333,-37.7282861169059
0.34,-37.3810333742783
0.346666666666666,-37.037257541494
0.353333333333333,-36.6983138975445
0.36,-36.3655232020874
0.366666666666666,-36.0401671366453
0.373333333333333,-35.723484135311
0.38,-35.4166656048469
0.386666666666666,-35.1208525289759
0.393333333333333,-34.837132446948
0.4,-34.5665367922188
0.406666666666666,-34.3100385733723
0.413333333333333,-34.068550376291
0.419999999999999,-33.8429226640648
0.426666666666666,-33.6339423492485
0.433333333333333,-33.4423316118373
0.439999999999999,-33.2687469357205
0.446666666666666,-33.1137783363819
0.453333333333333,-32.9779487532109
0.459999999999999,-32.8617135809375
0.466666666666666,-32.7654603163647
0.473333333333333,-32.689508298694
0.479999999999999,-32.6341085242661
0.486666666666666,-32.5994435194261
0.493333333333333,-32.5856272583918
0.499999999999999,-32.5927051164107
0.506666666666666,-32.6206538520669
0.513333333333333,-32.6693816162751
0.519999999999999,-32.7387279892258
0.526666666666666,-32.8284640502407
0.533333333333333,-32.9382924891178
0.54,-33.0678477710072
0.546666666666666,-33.2166963701182
0.553333333333333,-33.3843370905381
0.56,-33.5702014950942
0.566666666666666,-33.7736544654495
0.573333333333333,-33.9939949184359
0.58,-34.2304567049502
0.586666666666667,-34.4822097185126
0.593333333333333,-34.7483612407945
0.6,-35.0279575510071
0.606666666666667,-35.3199858250151
0.613333333333333,-35.623376348357
0.62,-35.9370050650503
0.626666666666667,-36.2596964811218
0.633333333333334,-36.5902269382843
0.64,-36.9273282691004
0.646666666666667,-37.2696918404051
0.653333333333334,-37.6159729867619
0.66,-37.964795830372
0.666666666666667,-38.314758478274
0.673333333333334,-38.6644385818391
0.68,-39.0123992379531
0.686666666666667,-39.3571952050261
0.693333333333334,-39.6973794021503
0.700000000000001,-40.03150965349
0.706666666666667,-40.3581556357026
0.713333333333334,-40.6759059813119
0.720000000000001,-40.9833754871048
0.726666666666667,-41.2792123732432
0.733333333333334,-41.5621055361147
0.740000000000001,-41.8307917359947
0.746666666666668,-42.0840626594071
0.753333333333334,-42.3207717956586
0.760000000000001,-42.5398410673931
0.766666666666668,-42.7402671561623
0.773333333333334,-42.921127465905
0.780000000000001,-43.0815856698528
0.786666666666668,-43.2208967896813
0.793333333333335,-43.3384117596608
0.800000000000001,-43.4335814330713
0.806666666666668,-43.5059599931679
0.813333333333335,-43.5552077364543
0.820000000000001,-43.5810932018704
0.826666666666668,-43.5834946256531
0.833333333333335,-43.5624007080181
0.840000000000002,-43.5179106843548
0.846666666666668,-43.450233700256
0.853333333333335,-43.3596874963393
0.860000000000002,-43.2466964153865
0.866666666666668,-43.1117887507532
0.873333333333335,-42.9555934612067
0.880000000000002,-42.7788362832706
0.886666666666668,-42.5823352777035
0.893333333333335,-42.3669958518628
0.900000000000002,-42.1338053043218
0.906666666666669,-41.8838269421668
0.913333333333335,-41.618193824837
0.920000000000002,-41.3381021911328
0.926666666666669,-41.0448046280739
0.933333333333335,-40.7396030415838
0.940000000000002,-40.4238414895163
0.946666666666669,-40.0988989372839
0.953333333333336,-39.766181995318
0.960000000000002,-39.4271176958009
0.966666666666669,-39.0831463635736
0.973333333333336,-38.7357146329099
0.980000000000002,-38.3862686579941
0.986666666666669,-38.0362475605293
0.993333333333336,-37.6870771530074
1,-37.3401639709077
1.00666666666667,-36.9968896415025
1.01333333333334,-36.6586056112445
1.02,-36.3266282478338
1.02666666666667,-36.0022343273459
1.03333333333334,-35.6866569110939
1.04,-35.3810816115373
1.04666666666667,-35.086643241446
1.05333333333334,-34.804422835876
1.06,-34.5354450323267
1.06666666666667,-34.2806757908094
1.07333333333334,-34.0410204325023
1.08,-33.8173219732262
1.08666666666667,-33.6103597261715
1.09333333333333,-33.4208481471412
1.1,-33.2494358950382
1.10666666666667,-33.0967050804078
1.11333333333333,-32.9631706755047
1.12,-32.8492800605713
1.12666666666667,-32.7554126827257
1.13333333333333,-32.6818798060362
1.14,-32.6289243339271
1.14666666666667,-32.5967206879867
1.15333333333333,-32.585374730448
1.16,-32.5949237210426
1.16666666666667,-32.6253363025204
1.17333333333333,-32.6765125128116
1.18,-32.7482838255342
1.18666666666667,-32.8404132242411
1.19333333333333,-32.9525953194024
1.2,-33.0844565205648
1.20666666666667,-33.2355552793539
1.21333333333333,-33.405382421933
1.22,-33.5933615921387
1.22666666666667,-33.798849828722
1.23333333333333,-34.0211383018815
1.24,-34.2594532355363
1.24666666666667,-34.512957042491
1.25333333333333,-34.7807496997845
1.26,-35.0618703910258
1.26666666666667,-35.3552994414137
1.27333333333333,-35.6599605693844
1.28,-35.9747234764485
1.28666666666667,-36.2984067937724
1.29333333333333,-36.6297814004701
1.3,-36.9675741244297
1.30666666666667,-37.3104718318787
1.31333333333333,-37.6571259068414
1.32,-38.0061571162633
1.32666666666667,-38.3561608509514
1.33333333333333,-38.7057127267126
1.34,-39.0533745241634
1.34666666666667,-39.3977004401999
1.35333333333333,-39.7372436180029
1.36,-40.0705629179021
1.36666666666667,-40.3962298857123
1.37333333333333,-40.7128358712684
1.38,-41.0189992457098
1.38666666666667,-41.3133726628681
1.39333333333333,-41.59465030751
1.4,-41.8615750713286
1.40666666666666,-42.1129455964808
1.41333333333333,-42.3476231261485
1.42,-42.5645381020666
1.42666666666666,-42.762696450199
1.43333333333333,-42.9411854977291
1.44,-43.0991794672374
1.44666666666666,-43.2359444973201
1.45333333333333,-43.350843142907
1.46,-43.4433383131106
1.46666666666666,-43.51299660952
1.47333333333333,-43.5594910333692
1.48,-43.5826030358984
1.48666666666666,-43.5822238924144
1.49333333333333,-43.5583553869635
1.5,-43.511109801091
1.50666666666666,-43.440709206794
1.51333333333333,-43.3474840704082
1.52,-43.2318711807216
1.52666666666666,-43.0944109210166
1.53333333333333,-42.9357439109132
1.54,-42.7566070497697
1.54666666666666,-42.5578289988984
1.55333333333333,-42.3403251449192
1.56,-42.1050920911321
1.56666666666666,-41.8532017277737
1.57333333333333,-41.5857949353821
1.58,-41.3040749781807
1.58666666666666,-41.0093006463506
1.59333333333333,-40.7027792072759
1.6,-40.3858592262859
1.60666666666666,-40.0599233170736
1.61333333333333,-39.7263808808498
1.62,-39.3866608914063
1.62666666666666,-39.0422047806508
1.63333333333333,-38.694459475879
1.64,-38.3448706361261
1.64666666666666,-37.9948761304667
1.65333333333333,-37.6458997962138
1.66,-37.2993455095642
1.66666666666666,-36.9565915958111
1.67333333333333,-36.6189856003198
1.68,-36.2878394356982
1.68666666666666,-35.9644249148928
1.69333333333333,-35.6499696742042
1.7,-35.3456534849231
1.70666666666666,-35.0526049472208
1.71333333333333,-34.7718985553294
1.72,-34.5045521189202
1.72666666666666,-34.2515245220204
1.73333333333333,-34.0137137978187
1.73999999999999,-33.7919554953498
1.74666666666666,-33.5870213123166
1.75333333333333,-33.3996179672171
1.75999999999999,-33.2303862834858
1.76666666666666,-33.0799004585053
1.77333333333333,-32.9486674910755
1.77999999999999,-32.8371267422036
1.78666666666666,-32.7456496058483
1.79333333333333,-32.6745392684783
1.79999999999999,-32.6240305389209
1.80666666666666,-32.5942897329337
1.81333333333333,-32.5854146001677
1.81999999999999,-32.5974342846386
1.82666666666666,-32.6303093134303
1.83333333333333,-32.6839316120488
1.83999999999999,-32.7581245485683
1.84666666666666,-32.8526430123945
1.85333333333333,-32.9671735370606
1.85999999999999,-33.1013344798879
1.86666666666666,-33.2546762745448
1.87333333333333,-33.4266817754433
1.87999999999999,-33.6167667154756
1.88666666666666,-33.8242803007541
1.89333333333333,-34.0485059677158
1.89999999999999,-34.2886623291511
1.90666666666666,-34.5439043363592
1.91333333333333,-34.8133246846933
1.91999999999999,-35.0959554892031
1.92666666666666,-35.3907702558971
1.93333333333333,-35.6966861723191
1.93999999999999,-36.0125667386784
1.94666666666666,-36.3372247576909
1.95333333333333,-36.6694256976388
1.95999999999999,-37.0078914389478
1.96666666666666,-37.3513044099088
1.97333333333333,-37.6983121120818
1.97999999999999,-38.0475320304947
1.98666666666666,-38.3975569181172
1.99333333333333,-38.746960438282
1.99999999999999,-39.0943031429077
2.00666666666666,-39.4381387586769
2.01333333333333,-39.7770207477033
2.01999999999999,-40.1095091040026
2.02666666666666,-40.4341773421939
2.03333333333333,-40.7496196304551
2.03999999999999,-41.0544580159305
2.04666666666666,-41.3473496875918
2.05333333333333,-41.6269942190456
2.05999999999999,-41.8921407320113
2.06666666666666,-42.1415949201865
2.07333333333333,-42.3742258729949
2.07999999999999,-42.5889726392641
2.08666666666666,-42.784850472211
2.09333333333333,-42.9609566991848
2.09999999999999,-43.1164761624071
2.10666666666666,-43.2506861804022
2.11333333333333,-43.3629609838923
2.11999999999999,-43.4527755845613
2.12666666666666,-43.5197090402352
2.13333333333333,-43.5634470855846
2.14,-43.5837841033884
2.14666666666666,-43.5806244176093
2.15333333333333,-43.5539828959669
2.16,-43.5039848562629
2.16666666666666,-43.4308652773521
2.17333333333333,-43.3349673222797
2.18,-43.2167401876468
2.18666666666666,-43.0767362996452
2.19333333333333,-42.9156078833523
2.2,-42.7341029377089
2.20666666666666,-42.5330606540646
2.21333333333333,-42.3134063211781
2.22,-42.0761457640573
2.22666666666666,-41.8223593679332
2.23333333333333,-41.5531957419498
2.24,-41.2698650797449
2.24666666666666,-40.9736322759798
2.25333333333333,-40.6658098589925
2.26,-40.3477508000985
2.26666666666666,-40.0208412596275
2.27333333333333,-39.6864933285699
2.28,-39.346137822737
2.28666666666667,-39.0012171836409
2.29333333333333,-38.6531785369268
2.3,-38.3034669551991
2.30666666666667,-37.9535189675581
2.31333333333333,-37.6047563531073
2.32,-37.258580250597
2.32666666666667,-36.9163656101354
2.33333333333333,-36.5794560081069
2.34,-36.24915883953
2.34666666666667,-35.9267408971873
2.35333333333333,-35.6134243407742
2.36,-35.310383054173
2.36666666666667,-35.0187393839162
2.37333333333333,-34.7395612473583
2.38,-34.4738595950155
2.38666666666667,-34.2225862080248
2.39333333333333,-33.9866318087653
2.4,-33.7668244603901
2.40666666666667,-33.5639282293667
2.41333333333333,-33.3786420841068
2.42,-33.2115990023805
2.42666666666667,-33.063365260427
2.43333333333334,-32.934439877474
2.44,-32.8252541907113
2.44666666666667,-32.7361715375959
2.45333333333334,-32.6674870246344
2.46,-32.6194273644564
2.46666666666667,-32.5921507659775
2.47333333333334,-32.5857468657197
2.48,-32.6002366918265
2.48666666666667,-32.6355726559279
2.49333333333334,-32.6916385717172
2.5,-32.7682497028152
2.50666666666667,-32.8651528461841
2.51333333333334,-32.9820264609147
2.52,-33.1184808556145
2.52666666666667,-33.2740584507882
2.53333333333334,-33.4482341354725
2.54,-33.6404157399068
2.54666666666667,-33.8499446481259
2.55333333333334,-34.0760965760085
2.56,-34.3180825414438
2.56666666666667,-34.5750500538581
2.57333333333334,-34.8460845503314
2.58000000000001,-35.1302111049047
2.58666666666667,-35.4263964364166
2.59333333333334,-35.7335512383072
2.60000000000001,-36.0505328512949
2.60666666666667,-36.3761482966826
2.61333333333334,-36.7091576843283
2.62000000000001,-37.0482780050526
2.62666666666667,-37.3921873125264
2.63333333333334,-37.7395292945501
2.64000000000001,-38.0889182281826
2.64666666666667,-38.4389443075142
2.65333333333334,-38.788179327083
2.66000000000001,-39.1351826980692
2.66666666666667,-39.4785077688035
2.67333333333334,-39.8167084154347
2.68000000000001,-40.1483458635014
2.68666666666667,-40.4719956962761
2.69333333333334,-40.7862550014259
2.70000000000001,-41.0897496037731
2.70666666666667,-41.3811413288243
2.71333333333334,-41.6591352393119
2.72000000000001,-41.9224867853143
2.72666666666668,-42.1700088076028
2.73333333333334,-42.4005783337359
2.74000000000001,-42.6131431070658
2.74666666666668,-42.8067277902413
2.75333333333334,-42.9804397869513
2.76000000000001,-43.1334746285214
2.76666666666668,-43.2651208755102
2.77333333333334,-43.3747644885974
2.78000000000001,-43.461892627754
2.78666666666668,-43.5260968438745
2.79333333333334,-43.567075632666
2.80000000000001,-43.5846363265501
2.80666666666668,-43.578696306582
2.81333333333334,-43.549283522843
2.82000000000001,-43.4965363183441
2.82666666666668,-43.4207025581203
2.83333333333334,-43.3221380718161
2.84000000000001,-43.201304424587
2.84666666666668,-43.0587660375021
2.85333333333335,-42.8951866847426
2.86000000000001,-42.7113254006885
2.86666666666668,-42.5080318353932
2.87333333333335,-42.286241101895
2.88000000000001,-42.0469681632424
2.88666666666668,-41.7913018109511
2.89333333333335,-41.5203982898175
2.90000000000001,-41.2354746265253
2.90666666666668,-40.9378017212749
2.91333333333335,-40.6286972626915
2.92000000000001,-40.3095185265267
2.92666666666668,-39.9816551181372
2.93333333333335,-39.6465217174217
2.94000000000001,-39.3055508828364
2.94666666666668,-38.9601859683317
2.95333333333335,-38.6118742036011
2.96000000000001,-38.2620599839746
2.96666666666668,-37.9121784116941
2.97333333333335,-37.5636491252891
2.98000000000001,-37.2178704483149
2.98666666666668,-36.8762138832058
2.99333333333335,-36.5400189700826
3.00000000000002,-36.2105885245211
3.00666666666668,-35.8891842627514
3.01333333333335,-35.5770228169102
3.02000000000002,-35.2752721378561
3.02666666666668,-34.9850482780439
3.03333333333335,-34.7074125424713
3.04000000000002,-34.4433689917108
3.04666666666668,-34.1938622776054
3.05333333333335,-33.959775789364
3.06000000000002,-33.7419300855778
3.06666666666668,-33.5410815861025
3.07333333333335,-33.3579214968078
3.08000000000002,-33.1930749398841
3.08666666666668,-33.0471002626849
3.09333333333335,-32.920488498946
3.10000000000002,-32.8136629576199
3.10666666666668,-32.7269789164475
3.11333333333335,-32.660723399712
3.12000000000002,-32.6151150223222
3.12666666666668,-32.5903038854005
3.13333333333335,-32.5863715118424
3.14000000000002,-32.6033308138062
3.14666666666669,-32.6411260877257
3.15333333333335,-32.6996330361429
3.16000000000002,-32.7786588193816
3.16666666666669,-32.8779421437467
3.17333333333335,-32.9971533964893
3.18000000000002,-33.1358948411517
3.18666666666669,-33.2937008900387
3.19333333333335,-33.4700384733974
3.20000000000002,-33.6643075273545
3.20666666666669,-33.8758416247218
3.21333333333335,-34.1039087743607
3.22000000000002,-34.347712415869
3.22666666666669,-34.6063926368606
3.23333333333335,-34.8790276400264
3.24000000000002,-35.164635486461
3.24666666666669,-35.4621761404028
3.25333333333335,-35.7705538385583
3.26000000000002,-36.0886198045744
3.26666666666669,-36.415175326007
3.27333333333335,-36.7489752073395
3.28000000000002,-37.0887316082919
3.28666666666669,-37.4331182718732
3.29333333333336,-37.780775141459
3.30000000000002,-38.1303133606936
3.30666666666669,-38.4803206443368
3.31333333333336,-38.829367002296
3.32000000000002,-39.1760107935103
3.32666666666669,-39.5188050801952
3.33333333333336,-39.8563042480192
3.34000000000002,-40.1870708521451
3.34666666666669,-40.5096826445404
3.35333333333336,-40.8227397336112
3.36000000000002,-41.1248718235403
3.36666666666669,-41.4147454776759
3.37333333333336,-41.691071347976
3.38000000000002,-41.9526113109237
3.38666666666669,-42.1981854495096
3.39333333333336,-42.4266788208349
3.40000000000002,-42.6370479496275
3.40666666666669,-42.8283269894755
3.41333333333336,-42.9996334958228
3.42000000000002,-43.1501737577247
3.42666666666669,-43.2792476389696
3.43333333333336,-43.3862528833864
3.44000000000003,-43.4706888439182
3.44666666666669,-43.5321596002851
3.45333333333336,-43.5703764357187
3.46000000000003,-43.5851596492511
3.46666666666669,-43.5764396863162
3.47333333333336,-43.5442575768915
3.48000000000003,-43.4887646770038
3.48666666666669,-43.4102217160632
3.49333333333336,-43.3089971591039
3.50000000000003,-43.1855648995194
3.50666666666669,-43.0405013042139
3.51333333333336,-42.8744816391684
3.52000000000003,-42.6882759091755
3.52666666666669,-42.4827441508517
3.53333333333336,-42.2588312229302
3.54000000000003,-42.017561142196
3.54666666666669,-41.7600310171949
3.55333333333336,-41.4874046349751
3.56000000000003,-41.2009057585495
3.56666666666669,-40.9018111944676
3.57333333333336,-40.5914436908273
3.58000000000003,-40.2711647262166
3.5866666666667,-39.9423672494563
3.59333333333336,-39.6064684286199
3.60000000000003,-39.2649024656588
3.6066666666667,-38.919113530102
3.61333333333336,-38.5705488617691
3.62000000000003,-38.2206520883156
3.6266666666667,-37.8708567987717
3.63333333333336,-37.522580409167
3.64000000000003,-37.1772183508628
3.6466666666667,-36.8361386066595
3.65333333333336,-36.5006766137642
3.66000000000003,-36.1721305471158
3.6666666666667,-35.8517569906469
3.67333333333336,-35.5407669986202
3.68000000000003,-35.2403225438772
3.6866666666667,-34.9515333449556
3.69333333333336,-34.6754540595861
3.70000000000003,-34.4130818281449
3.7066666666667,-34.1653541472732
3.71333333333336,-33.9331470511035
3.72000000000003,-33.7172735753962
3.7266666666667,-33.5184824783838
3.73333333333337,-33.337457191258
3.74000000000003,-33.1748149709908
3.7466666666667,-33.0311062285408
3.75333333333337,-32.9068140064262
3.76000000000003,-32.8023535810987
3.7666666666667,-32.7180721674949
3.77333333333337,-32.6542487055101
3.78000000000003,-32.611093710885
3.7866666666667,-32.5887491760565
3.79333333333337,-32.5872885098437
3.80000000000003,-32.6067165083512
3.8066666666667,-32.6469693531179
3.81333333333337,-32.7079146362505
3.82000000000003,-32.7893514159974
3.8266666666667,-32.8910103098786
3.83333333333337,-33.0125536360193
3.84000000000003,-33.1535756166857
3.8466666666667,-33.3136026611225
3.85333333333337,-33.492093747585
3.86000000000003,-33.6884409268829
3.8666666666667,-33.9019699717571
3.87333333333337,-34.1319411979358
3.88000000000004,-34.3775504837239
3.8866666666667,-34.6379305154163
3.89333333333337,-34.9121522856749
3.90000000000004,-35.1992268712268
3.9066666666667,-35.4981075148333
3.91333333333337,-35.8076920344221
3.92000000000004,-36.1268255796002
3.9266666666667,-36.4543037524727
3.93333333333337,-36.7888761058411
3.94000000000004,-37.1292500274759
3.9466666666667,-37.4740950143234
3.95333333333337,-37.8220473352967
3.96000000000004,-38.1717150757835
3.9666666666667,-38.5216835512986
3.97333333333337,-38.8705210719067
3.98000000000004,-39.2167850331803
3.9866666666667,-39.5590283039016
